Input voltage [V]    Input voltage [V]     Output Voltage [V]    Maximum error [V]   Maximum error [V]   Maximum error [V]
  Wavetek 9100        Agilent 34410A         Agilent 3458A         Wavetek 9100       Agilent 34410A      Agilent 3458A 
  4.00000000          4.00060034             2.481482e-02          3.520000e-03       5.400360e-03        3.737037e-06
  4.02500000          4.02575250             2.496988e-02          3.530000e-03       5.415451e-03        3.747892e-06
  4.05000000          4.05047775             2.512407e-02          3.540000e-03       5.430287e-03        3.758685e-06
  4.07500000          4.07554602             2.527702e-02          3.550000e-03       5.445328e-03        3.769391e-06
  4.10000000          4.10077898             2.543336e-02          3.560000e-03       5.460467e-03        3.780335e-06
  4.12500000          4.12564000             2.559271e-02          3.570000e-03       5.475384e-03        3.791490e-06
  4.15000000          4.15065111             2.574550e-02          3.580000e-03       5.490391e-03        3.802185e-06
  4.17500000          4.17559054             2.589769e-02          3.590000e-03       5.505354e-03        3.812839e-06
  4.20000000          4.20050209             2.605689e-02          3.600000e-03       5.520301e-03        3.823982e-06
  4.22500000          4.22564866             2.621611e-02          3.610000e-03       5.535389e-03        3.835127e-06
  4.25000000          4.25074132             2.636636e-02          3.620000e-03       5.550445e-03        3.845645e-06
  4.27500000          4.27561477             2.651994e-02          3.630000e-03       5.565369e-03        3.856396e-06
  4.30000000          4.30078611             2.667714e-02          3.640000e-03       5.580472e-03        3.867400e-06
  4.32500000          4.32564776             2.682970e-02          3.650000e-03       5.595389e-03        3.878079e-06
  4.35000000          4.35070733             2.698338e-02          3.660000e-03       5.610424e-03        3.888836e-06
  4.37500000          4.37577991             2.714083e-02          3.670000e-03       5.625468e-03        3.899858e-06
  4.40000000          4.40066647             2.729740e-02          3.680000e-03       5.640400e-03        3.910818e-06
  4.42500000          4.42563211             2.745090e-02          3.690000e-03       5.655379e-03        3.921563e-06
  4.45000000          4.45044133             2.760806e-02          3.700000e-03       5.670265e-03        3.932564e-06
  4.47500000          4.47557672             2.775655e-02          3.710000e-03       5.685346e-03        3.942959e-06
  4.50000000          4.50080953             2.791771e-02          3.720000e-03       5.700486e-03        3.954239e-06
  4.52500000          4.52555463             2.806975e-02          3.730000e-03       5.715333e-03        3.964883e-06
  4.55000000          4.55070788             2.822450e-02          3.740000e-03       5.730425e-03        3.975715e-06
  4.57500000          4.57576132             2.838294e-02          3.750000e-03       5.745457e-03        3.986806e-06
  4.60000000          4.60060885             2.853665e-02          3.760000e-03       5.760365e-03        3.997566e-06
  4.62500000          4.62574543             2.869122e-02          3.770000e-03       5.775447e-03        4.008385e-06
  4.65000000          4.65078779             2.884825e-02          3.780000e-03       5.790473e-03        4.019377e-06
  4.67500000          4.67570055             2.899916e-02          3.790000e-03       5.805420e-03        4.029941e-06
  4.70000000          4.70078788             2.915490e-02          3.800000e-03       5.820473e-03        4.040843e-06
  4.72500000          4.72572869             2.931240e-02          3.810000e-03       5.835437e-03        4.051868e-06
  4.75000000          4.75070548             2.946890e-02          3.820000e-03       5.850423e-03        4.062823e-06
  4.77500000          4.77562505             2.962542e-02          3.830000e-03       5.865375e-03        4.073779e-06
  4.80000000          4.80067029             2.977467e-02          3.840000e-03       5.880402e-03        4.084227e-06
  4.82500000          4.82584350             2.992996e-02          3.850000e-03       5.895506e-03        4.095098e-06
  4.85000000          4.85070449             3.009073e-02          3.860000e-03       5.910423e-03        4.106351e-06
  4.87500000          4.87559851             3.024076e-02          3.870000e-03       5.925359e-03        4.116853e-06
  4.90000000          4.90080350             3.039713e-02          3.880000e-03       5.940482e-03        4.127799e-06
  4.92500000          4.92588413             3.055374e-02          3.890000e-03       5.955530e-03        4.138762e-06
  4.95000000          4.95083432             3.070644e-02          3.900000e-03       5.970501e-03        4.149451e-06
  4.97500000          4.97572077             3.085847e-02          3.910000e-03       5.985432e-03        4.160093e-06
  5.00000000          5.00067809             3.101989e-02          3.920000e-03       6.000407e-03        4.171392e-06
  5.02500000          5.02576191             3.117503e-02          3.930000e-03       6.015457e-03        4.182252e-06
  5.05000000          5.05079502             3.132935e-02          3.940000e-03       6.030477e-03        4.193054e-06
  5.07500000          5.07578380             3.148290e-02          3.950000e-03       6.045470e-03        4.203803e-06
  5.10000000          5.10073325             3.163524e-02          3.960000e-03       6.060440e-03        4.214467e-06
  5.12500000          5.12587609             3.179294e-02          3.970000e-03       6.075526e-03        4.225506e-06
  5.15000000          5.15088371             3.194737e-02          3.980000e-03       6.090530e-03        4.236316e-06
  5.17500000          5.17593622             3.210133e-02          3.990000e-03       6.105562e-03        4.247093e-06
  5.20000000          5.20095959             3.225831e-02          4.000000e-03       6.120576e-03        4.258082e-06
  5.22500000          5.22571191             3.241299e-02          4.010000e-03       6.135427e-03        4.268909e-06
  5.25000000          5.25078392             3.256872e-02          4.020000e-03       6.150470e-03        4.279810e-06
  5.27500000          5.27591798             3.272548e-02          4.030000e-03       6.165551e-03        4.290783e-06
  5.30000000          5.30079273             3.287650e-02          4.040000e-03       6.180476e-03        4.301355e-06
  5.32500000          5.32579442             3.303121e-02          4.050000e-03       6.195477e-03        4.312185e-06
  5.35000000          5.35071080             3.318401e-02          4.060000e-03       6.210426e-03        4.322881e-06
  5.37500000          5.37580133             3.334038e-02          4.070000e-03       6.225481e-03        4.333827e-06
  5.40000000          5.40086296             3.349741e-02          4.080000e-03       6.240518e-03        4.344819e-06
  5.42500000          5.42559687             3.365234e-02          4.090000e-03       6.255358e-03        4.355664e-06
  5.45000000          5.45088830             3.380950e-02          4.100000e-03       6.270533e-03        4.366665e-06
  5.47500000          5.47578864             3.396097e-02          4.110000e-03       6.285473e-03        4.377268e-06
  5.50000000          5.50086721             3.411717e-02          4.120000e-03       6.300520e-03        4.388202e-06
  5.52500000          5.52573899             3.427592e-02          4.130000e-03       6.315443e-03        4.399314e-06
  5.55000000          5.55075984             3.443006e-02          4.140000e-03       6.330456e-03        4.410104e-06
  5.57500000          5.57559072             3.458232e-02          4.150000e-03       6.345354e-03        4.420763e-06
  5.60000000          5.60060727             3.473946e-02          4.160000e-03       6.360364e-03        4.431762e-06
  5.62500000          5.62570370             3.489452e-02          4.170000e-03       6.375422e-03        4.442616e-06
  5.65000000          5.65080983             3.504712e-02          4.180000e-03       6.390486e-03        4.453298e-06
  5.67500000          5.67573358             3.520128e-02          4.190000e-03       6.405440e-03        4.464090e-06
  5.70000000          5.70076439             3.535896e-02          4.200000e-03       6.420459e-03        4.475127e-06
  5.72500000          5.72589774             3.551770e-02          4.210000e-03       6.435539e-03        4.486239e-06
  5.75000000          5.75087241             3.566416e-02          4.220000e-03       6.450523e-03        4.496491e-06
  5.77500000          5.77574016             3.582378e-02          4.230000e-03       6.465444e-03        4.507665e-06
  5.80000000          5.80077751             3.597877e-02          4.240000e-03       6.480467e-03        4.518514e-06
  5.82500000          5.82586477             3.612700e-02          4.250000e-03       6.495519e-03        4.528890e-06
  5.85000000          5.85102295             3.629422e-02          4.260000e-03       6.510614e-03        4.540595e-06
  5.87500000          5.87570826             3.643674e-02          4.270000e-03       6.525425e-03        4.550572e-06
  5.90000000          5.90102487             3.659994e-02          4.280000e-03       6.540615e-03        4.561996e-06
  5.92500000          5.92561379             3.675354e-02          4.290000e-03       6.555368e-03        4.572748e-06
  5.95000000          5.95074057             3.691139e-02          4.300000e-03       6.570444e-03        4.583797e-06
  5.97500000          5.97591112             3.706457e-02          4.310000e-03       6.585547e-03        4.594520e-06
  6.00000000          6.00095322             3.721756e-02          4.320000e-03       6.600572e-03        4.605229e-06
  6.02500000          6.02581048             3.737539e-02          4.330000e-03       6.615486e-03        4.616277e-06
  6.05000000          6.05074224             3.753260e-02          4.340000e-03       6.630445e-03        4.627282e-06
  6.07500000          6.07583684             3.768622e-02          4.350000e-03       6.645502e-03        4.638035e-06
  6.10000000          6.10084376             3.783958e-02          4.360000e-03       6.660506e-03        4.648770e-06
  6.12500000          6.12576288             3.799191e-02          4.370000e-03       6.675458e-03        4.659434e-06
  6.15000000          6.15087463             3.814857e-02          4.380000e-03       6.690525e-03        4.670400e-06
  6.17500000          6.17596579             3.830138e-02          4.390000e-03       6.705579e-03        4.681097e-06
  6.20000000          6.20079280             3.846251e-02          4.400000e-03       6.720476e-03        4.692375e-06
  6.22500000          6.22573070             3.861527e-02          4.410000e-03       6.735438e-03        4.703069e-06
  6.25000000          6.25109648             3.877028e-02          4.420000e-03       6.750658e-03        4.713920e-06
  6.27500000          6.27582902             3.892026e-02          4.430000e-03       6.765497e-03        4.724418e-06
  6.30000000          6.30083318             3.908237e-02          4.440000e-03       6.780500e-03        4.735766e-06
  6.32500000          6.32589487             3.923633e-02          4.450000e-03       6.795537e-03        4.746543e-06
  6.35000000          6.35087177             3.939293e-02          4.460000e-03       6.810523e-03        4.757505e-06
  6.37500000          6.37589251             3.954535e-02          4.470000e-03       6.825536e-03        4.768174e-06
  6.40000000          6.40081010             3.970155e-02          4.480000e-03       6.840486e-03        4.779108e-06
  6.42500000          6.42589434             3.985538e-02          4.490000e-03       6.855537e-03        4.789877e-06
  6.45000000          6.45076098             4.000699e-02          4.500000e-03       6.870457e-03        4.800489e-06
  6.47500000          6.47587865             4.016869e-02          4.510000e-03       6.885527e-03        4.811809e-06
  6.50000000          6.50080219             4.032554e-02          4.520000e-03       6.900481e-03        4.822788e-06
  6.52500000          6.52591947             4.047783e-02          4.530000e-03       6.915552e-03        4.833448e-06
  6.55000000          6.55096937             4.063314e-02          4.540000e-03       6.930582e-03        4.844320e-06
  6.57500000          6.57594683             4.079327e-02          4.550000e-03       6.945568e-03        4.855529e-06
  6.60000000          6.60080622             4.093926e-02          4.560000e-03       6.960484e-03        4.865748e-06
  6.62500000          6.62568934             4.109279e-02          4.570000e-03       6.975414e-03        4.876495e-06
  6.65000000          6.65071891             4.125166e-02          4.580000e-03       6.990431e-03        4.887616e-06
  6.67500000          6.67579187             4.140718e-02          4.590000e-03       7.005475e-03        4.898502e-06
  6.70000000          6.70111497             4.156553e-02          4.600000e-03       7.020669e-03        4.909587e-06
  6.72500000          6.72572843             4.171495e-02          4.610000e-03       7.035437e-03        4.920047e-06
  6.75000000          6.75092119             4.187162e-02          4.620000e-03       7.050553e-03        4.931013e-06
  6.77500000          6.77601662             4.202792e-02          4.630000e-03       7.065610e-03        4.941955e-06
  6.80000000          6.80092866             4.218564e-02          4.640000e-03       7.080557e-03        4.952995e-06
  6.82500000          6.82576085             4.233422e-02          4.650000e-03       7.095457e-03        4.963395e-06
  6.85000000          6.85089978             4.249032e-02          4.660000e-03       7.110540e-03        4.974322e-06
  6.87500000          6.87590539             4.264686e-02          4.670000e-03       7.125543e-03        4.985280e-06
  6.90000000          6.90098899             4.280462e-02          4.680000e-03       7.140593e-03        4.996324e-06
  6.92500000          6.92593024             4.295846e-02          4.690000e-03       7.155558e-03        5.007092e-06
  6.95000000          6.95094618             4.310970e-02          4.700000e-03       7.170568e-03        5.017679e-06
  6.97500000          6.97581142             4.326834e-02          4.710000e-03       7.185487e-03        5.028784e-06
  7.00000000          7.00090400             4.342088e-02          4.720000e-03       7.200542e-03        5.039461e-06
  7.02500000          7.02592657             4.357997e-02          4.730000e-03       7.215556e-03        5.050598e-06
  7.05000000          7.05080587             4.372914e-02          4.740000e-03       7.230484e-03        5.061040e-06
  7.07500000          7.07581820             4.388695e-02          4.750000e-03       7.245491e-03        5.072087e-06
  7.10000000          7.10112172             4.404416e-02          4.760000e-03       7.260673e-03        5.083091e-06
  7.12500000          7.12588117             4.419710e-02          4.770000e-03       7.275529e-03        5.093797e-06
  7.15000000          7.15069274             4.435346e-02          4.780000e-03       7.290416e-03        5.104742e-06
  7.17500000          7.17595823             4.451138e-02          4.790000e-03       7.305575e-03        5.115797e-06
  7.20000000          7.20092137             4.466281e-02          4.800000e-03       7.320553e-03        5.126397e-06
  7.22500000          7.22594246             4.481881e-02          4.810000e-03       7.335565e-03        5.137317e-06
  7.25000000          7.25081593             4.497248e-02          4.820000e-03       7.350490e-03        5.148074e-06
  7.27500000          7.27576273             4.512731e-02          4.830000e-03       7.365458e-03        5.158912e-06
  7.30000000          7.30079562             4.528380e-02          4.840000e-03       7.380477e-03        5.169866e-06
  7.32500000          7.32590348             4.544085e-02          4.850000e-03       7.395542e-03        5.180859e-06
  7.35000000          7.35093496             4.559536e-02          4.860000e-03       7.410561e-03        5.191675e-06
  7.37500000          7.37598491             4.575077e-02          4.870000e-03       7.425591e-03        5.202554e-06
  7.40000000          7.40094969             4.590363e-02          4.880000e-03       7.440570e-03        5.213254e-06
  7.42500000          7.42595391             4.605810e-02          4.890000e-03       7.455572e-03        5.224067e-06
  7.45000000          7.45090740             4.621192e-02          4.900000e-03       7.470544e-03        5.234835e-06
  7.47500000          7.47591201             4.636955e-02          4.910000e-03       7.485547e-03        5.245869e-06
  7.50000000          7.50096260             4.652534e-02          4.920000e-03       7.500578e-03        5.256774e-06
  7.52500000          7.52580363             4.668045e-02          4.930000e-03       7.515482e-03        5.267631e-06
  7.55000000          7.55087121             4.683718e-02          4.940000e-03       7.530523e-03        5.278602e-06
  7.57500000          7.57582431             4.699567e-02          4.950000e-03       7.545495e-03        5.289697e-06
  7.60000000          7.60073167             4.714360e-02          4.960000e-03       7.560439e-03        5.300052e-06
  7.62500000          7.62604399             4.729886e-02          4.970000e-03       7.575626e-03        5.310920e-06
  7.65000000          7.65091209             4.746029e-02          4.980000e-03       7.590547e-03        5.322220e-06
  7.67500000          7.67604195             4.761133e-02          4.990000e-03       7.605625e-03        5.332793e-06
  7.70000000          7.70087607             4.776548e-02          5.000000e-03       7.620526e-03        5.343584e-06
  7.72500000          7.72583776             4.791897e-02          5.010000e-03       7.635503e-03        5.354328e-06
  7.75000000          7.75077761             4.807601e-02          5.020000e-03       7.650467e-03        5.365321e-06
  7.77500000          7.77584386             4.823321e-02          5.030000e-03       7.665506e-03        5.376325e-06
  7.80000000          7.80095077             4.838923e-02          5.040000e-03       7.680570e-03        5.387246e-06
  7.82500000          7.82586294             4.854354e-02          5.050000e-03       7.695518e-03        5.398048e-06
  7.85000000          7.85094287             4.869684e-02          5.060000e-03       7.710566e-03        5.408779e-06
  7.87500000          7.87600260             4.885472e-02          5.070000e-03       7.725602e-03        5.419830e-06
  7.90000000          7.90104208             4.901063e-02          5.080000e-03       7.740625e-03        5.430744e-06
  7.92500000          7.92604490             4.916434e-02          5.090000e-03       7.755627e-03        5.441504e-06
  7.95000000          7.95082734             4.931550e-02          5.100000e-03       7.770496e-03        5.452085e-06
  7.97500000          7.97601226             4.947373e-02          5.110000e-03       7.785607e-03        5.463161e-06
  8.00000000          8.00099889             4.962845e-02          5.120000e-03       7.800599e-03        5.473991e-06
  8.02500000          8.02590489             4.978301e-02          5.130000e-03       7.815543e-03        5.484811e-06
  8.05000000          8.05097930             4.993617e-02          5.140000e-03       7.830588e-03        5.495532e-06
  8.07500000          8.07596034             5.009250e-02          5.150000e-03       7.845576e-03        5.506475e-06
  8.10000000          8.10102580             5.025128e-02          5.160000e-03       7.860615e-03        5.517590e-06
  8.12500000          8.12596219             5.040330e-02          5.170000e-03       7.875577e-03        5.528231e-06
